#Volume (Ang^3)   Free Energy (kJ/mol)
337.508473 -813050.555762
333.654574 -813051.947236
329.953023 -813052.998942
326.636487 -813053.675781
324.218483 -813053.995565
322.013479 -813054.149429
319.822761 -813054.163664
317.983981 -813054.062749
315.871534 -813053.812553
314.104269 -813053.487332
312.356311 -813053.056681
310.728547 -813052.553880
309.080125 -813051.940436
307.318402 -813051.163972
306.281361 -813050.646389
303.495814 -813049.024011
302.172377 -813048.129764
300.758502 -813047.082714
299.511364 -813046.078072
298.028332 -813044.781320
296.810965 -813043.631472
295.586040 -813042.394457
294.405260 -813041.123955
293.256162 -813039.812005
292.149370 -813038.476111
288.952715 -813034.203498
286.951332 -813031.200579
284.177966 -813026.597539
282.381583 -813023.329112
278.187125 -813014.763578
274.681372 -813006.532804
271.167453 -812997.225650
267.537387 -812986.416294
