#Volume (Ang^3)   Free Energy (kJ/mol)
337.508473 -813003.511513
333.654574 -813005.598030
329.953023 -813007.322424
326.636487 -813008.606249
324.218483 -813009.371111
322.013479 -813009.932711
319.822761 -813010.353800
317.983981 -813010.595727
315.871534 -813010.740916
314.104269 -813010.747714
312.356311 -813010.646564
310.728547 -813010.451594
309.080125 -813010.150855
307.318402 -813009.709659
306.281361 -813009.389946
303.495814 -813008.300934
302.172377 -813007.661044
300.758502 -813006.886404
299.511364 -813006.122619
298.028332 -813005.112974
296.810965 -813004.199360
295.586040 -813003.200549
294.405260 -813002.160141
293.256162 -813001.072556
292.149370 -812999.953176
288.952715 -812996.308132
286.951332 -812993.699779
284.177966 -812989.645551
282.381583 -812986.733844
278.187125 -812979.004890
274.681372 -812971.477086
271.167453 -812962.877746
267.537387 -812952.802726
