#Volume (Ang^3)   Free Energy (kJ/mol)
337.508473 -813010.032239
333.654574 -813011.970047
329.953023 -813013.551112
326.636487 -813014.706130
324.218483 -813015.376871
322.013479 -813015.852496
319.822761 -813016.188042
317.983981 -813016.358079
315.871534 -813016.420587
314.104269 -813016.358146
312.356311 -813016.188459
310.728547 -813015.929623
309.080125 -813015.564170
307.318402 -813015.053779
306.281361 -813014.693321
303.495814 -813013.494830
302.172377 -813012.802916
300.758502 -813011.972695
299.511364 -813011.159885
298.028332 -813010.091949
296.810965 -813009.130496
295.586040 -813008.083561
294.405260 -813006.996779
293.256162 -813005.864080
292.149370 -813004.701267
288.952715 -813000.930905
286.951332 -812998.244212
284.177966 -812994.081620
282.381583 -812991.099864
278.187125 -812983.207870
274.681372 -812975.544469
271.167453 -812966.809963
267.537387 -812956.596231
