#Volume (Ang^3)   Free Energy (kJ/mol)
337.508473 -813006.273481
333.654574 -813008.289915
329.953023 -813009.946877
326.636487 -813011.170203
324.218483 -813011.890920
322.013479 -813012.412246
319.822761 -813012.793309
317.983981 -813013.001636
315.871534 -813013.108226
314.104269 -813013.082736
312.356311 -813012.949661
310.728547 -813012.724972
309.080125 -813012.394151
307.318402 -813011.920827
306.281361 -813011.582214
303.495814 -813010.442484
302.172377 -813009.778529
300.758502 -813008.978205
299.511364 -813008.191787
298.028332 -813007.155260
296.810965 -813006.219608
295.586040 -813005.198650
294.405260 -813004.136921
293.256162 -813003.028615
292.149370 -813001.889304
288.952715 -812998.186865
286.951332 -812995.542718
284.177966 -812991.439091
282.381583 -812988.495523
278.187125 -812980.692647
274.681372 -812973.103623
271.167453 -812964.443510
267.537387 -812954.306399
