#Volume (Ang^3)   Free Energy (kJ/mol)
337.508473 -813026.691163
333.654574 -813028.365886
329.953023 -813029.692267
326.636487 -813030.617425
324.218483 -813031.119587
322.013479 -813031.440754
319.822761 -813031.622152
317.983981 -813031.662275
315.871534 -813031.574939
314.104269 -813031.386651
312.356311 -813031.092056
310.728547 -813030.716512
309.080125 -813030.232489
307.318402 -813029.594956
306.281361 -813029.159453
303.495814 -813027.758646
302.172377 -813026.970234
300.758502 -813026.036655
299.511364 -813025.132450
298.028332 -813023.955557
296.810965 -813022.904444
295.586040 -813021.767092
294.405260 -813020.592963
293.256162 -813019.375086
292.149370 -813018.130066
288.952715 -813014.121388
286.951332 -813011.284831
284.177966 -813006.913751
282.381583 -813003.796456
278.187125 -812995.586528
274.681372 -812987.655899
271.167453 -812978.652263
267.537387 -812968.159260
