#Volume (Ang^3)   Free Energy (kJ/mol)
337.508473 -813020.291679
333.654574 -813022.057229
329.953023 -813023.471611
326.636487 -813024.476260
324.218483 -813025.036761
322.013479 -813025.411412
319.822761 -813025.646219
317.983981 -813025.731378
315.871534 -813025.696017
314.104269 -813025.551404
312.356311 -813025.300182
310.728547 -813024.965184
309.080125 -813024.522375
307.318402 -813023.929060
306.281361 -813023.519669
303.495814 -813022.189303
302.172377 -813021.434512
300.758502 -813020.536963
299.511364 -813019.664633
298.028332 -813018.525760
296.810965 -813017.505949
295.586040 -813016.400179
294.405260 -813015.256574
293.256162 -813014.068477
292.149370 -813012.852211
288.952715 -813008.926970
286.951332 -813006.142942
284.177966 -813001.845020
282.381583 -812998.775339
278.187125 -812990.677266
274.681372 -812982.840847
271.167453 -812973.932283
267.537387 -812963.538150
