#Volume (Ang^3)   Free Energy (kJ/mol)
337.508473 -813014.723650
333.654574 -813016.577253
329.953023 -813018.076884
326.636487 -813019.158481
324.218483 -813019.775420
322.013479 -813020.201786
319.822761 -813020.488207
317.983981 -813020.616869
315.871534 -813020.631687
314.104269 -813020.529222
312.356311 -813020.319834
310.728547 -813020.023927
309.080125 -813019.620835
307.318402 -813019.070111
306.281361 -813018.685860
303.495814 -813017.423276
302.172377 -813016.700818
300.758502 -813015.837902
299.511364 -813014.996198
298.028332 -813013.893838
296.810965 -813012.904076
295.586040 -813011.828609
294.405260 -813010.714281
293.256162 -813009.554735
292.149370 -813008.366026
288.952715 -813004.520679
286.951332 -813001.786899
284.177966 -812997.558890
282.381583 -812994.534664
278.187125 -812986.543235
274.681372 -812978.796473
271.167453 -812969.978221
267.537387 -812959.677826
